------- ELASTODYN V1.00.* INDIVIDUAL BLADE INPUT FILE --------------------------
1.5 MW baseline blade model properties from "InputData1.5A08V07adm.xls" (from C. Hansen) with bugs removed.
---------------------- BLADE PARAMETERS ----------------------------------------
         21   NBlInpSt    - Number of blade input stations (-)
      3.882   BldFlDmp(1) - Blade flap mode #1 structural damping in percent of critical (%)
      3.882   BldFlDmp(2) - Blade flap mode #2 structural damping in percent of critical (%)
        5.9   BldEdDmp(1) - Blade edge mode #1 structural damping in percent of critical (%)
---------------------- BLADE ADJUSTMENT FACTORS --------------------------------
          1   FlStTunr(1) - Blade flapwise modal stiffness tuner, 1st mode (-)
          1   FlStTunr(2) - Blade flapwise modal stiffness tuner, 2nd mode (-)
          1   AdjBlMs     - Factor to adjust blade mass density (-)
          1   AdjFlSt     - Factor to adjust blade flap stiffness (-)
          1   AdjEdSt     - Factor to adjust blade edge stiffness (-)
---------------------- DISTRIBUTED BLADE PROPERTIES ----------------------------
        BlFract               StrcTwst               BMassDen               FlpStff                 EdgStff
          (-)                   (deg)                 (kg/m)                 (Nm^2)                  (Nm^2)
 0.000000000000000E+00  1.110000000000000E+01  1.447607000000000E+03  7.681460000000000E+09  7.681460000000000E+09
 2.105000000000000E-02  1.110000000000000E+01  1.803330000000000E+02  1.169870000000000E+09  1.169870000000000E+09
 5.263000000000000E-02  1.110000000000000E+01  1.816720000000000E+02  1.020620000000000E+09  1.092280000000000E+09
 1.052600000000000E-01  1.110000000000000E+01  1.839050000000000E+02  7.718800000000000E+08  9.629700000000000E+08
 1.578900000000000E-01  1.110000000000000E+01  1.861380000000000E+02  5.231400000000000E+08  8.336600000000000E+08
 2.105300000000000E-01  1.110000000000000E+01  1.883700000000000E+02  2.744000000000000E+08  7.043500000000000E+08
 2.631600000000000E-01  9.500000000000000E+00  1.783210000000000E+02  2.345700000000000E+08  6.146500000000000E+08
 3.157900000000000E-01  7.900000000000000E+00  1.682710000000000E+02  1.947400000000000E+08  5.249600000000000E+08
 3.684200000000000E-01  6.300000000000000E+00  1.582220000000000E+02  1.549000000000000E+08  4.352600000000000E+08
 4.210500000000000E-01  4.700000000000000E+00  1.481720000000000E+02  1.150700000000000E+08  3.455700000000000E+08
 4.736800000000000E-01  3.100000000000000E+00  1.381230000000000E+02  7.523000000000000E+07  2.558700000000000E+08
 5.263200000000000E-01  2.600000000000000E+00  1.228960000000000E+02  6.249000000000000E+07  2.178700000000000E+08
 5.789500000000000E-01  2.100000000000000E+00  1.076690000000000E+02  4.975000000000000E+07  1.798600000000000E+08
 6.315800000000000E-01  1.600000000000000E+00  9.244199999999999E+01  3.701000000000000E+07  1.418600000000000E+08
 6.842100000000000E-01  1.100000000000000E+00  7.721500000000000E+01  2.427000000000000E+07  1.038500000000000E+08
 7.368400000000001E-01  6.000000000000000E-01  6.198800000000000E+01  1.153000000000000E+07  6.585000000000000E+07
 7.894700000000000E-01  4.800000000000000E-01  5.186100000000000E+01  9.270000000000000E+06  5.425000000000000E+07
 8.421100000000000E-01  3.600000000000000E-01  4.173400000000000E+01  7.010000000000000E+06  4.266000000000000E+07
 8.947400000000000E-01  2.400000000000000E-01  3.160700000000000E+01  4.750000000000000E+06  3.106000000000000E+07
 9.473700000000000E-01  1.200000000000000E-01  2.148000000000000E+01  2.490000000000000E+06  1.947000000000000E+07
 1.000000000000000E+00  0.000000000000000E+00  1.135300000000000E+01  2.300000000000000E+05  7.870000000000000E+06
---------------------- BLADE MODE SHAPES ---------------------------------------
     0.0838   BldFl1Sh(2) - Flap mode 1, coeff of x^2
     1.6525   BldFl1Sh(3) -            , coeff of x^3
    -1.5682   BldFl1Sh(4) -            , coeff of x^4
     1.6947   BldFl1Sh(5) -            , coeff of x^5
    -0.8628   BldFl1Sh(6) -            , coeff of x^6
    -0.3008   BldFl2Sh(2) - Flap mode 2, coeff of x^2
    -1.9968   BldFl2Sh(3) -            , coeff of x^3
    -4.6564   BldFl2Sh(4) -            , coeff of x^4
    16.9661   BldFl2Sh(5) -            , coeff of x^5
    -9.0121   BldFl2Sh(6) -            , coeff of x^6
     0.3165   BldEdgSh(2) - Edge mode 1, coeff of x^2
     3.2618   BldEdgSh(3) -            , coeff of x^3
    -6.4005   BldEdgSh(4) -            , coeff of x^4
     6.0367   BldEdgSh(5) -            , coeff of x^5
    -2.2146   BldEdgSh(6) -            , coeff of x^6


