------- ELASTODYN V1.00.* INDIVIDUAL BLADE INPUT FILE --------------------------
Standard AWT-27CR blade data.  Used for FAST Certification Tests.
---------------------- BLADE PARAMETERS ----------------------------------------
         21   NBlInpSt    - Number of blade input stations (-)
        3.9   BldFlDmp(1) - Blade flap mode #1 structural damping in percent of critical (%)
         12   BldFlDmp(2) - Blade flap mode #2 structural damping in percent of critical (%)
       11.4   BldEdDmp(1) - Blade edge mode #1 structural damping in percent of critical (%)
---------------------- BLADE ADJUSTMENT FACTORS --------------------------------
          1   FlStTunr(1) - Blade flapwise modal stiffness tuner, 1st mode (-)
          1   FlStTunr(2) - Blade flapwise modal stiffness tuner, 2nd mode (-)
          1   AdjBlMs     - Factor to adjust blade mass density (-)
          1   AdjFlSt     - Factor to adjust blade flap stiffness (-)
          1   AdjEdSt     - Factor to adjust blade edge stiffness (-)
---------------------- DISTRIBUTED BLADE PROPERTIES ----------------------------
        BlFract               StrcTwst               BMassDen               FlpStff                 EdgStff
          (-)                   (deg)                 (kg/m)                 (Nm^2)                  (Nm^2)
 0.000000000000000E+00  1.050000000000000E+01  9.037000000000000E+01  4.420000000000000E+07  1.170000000000000E+08
 5.000000000000000E-02  1.050000000000000E+01  5.849600000000000E+01  2.759554000000000E+07  8.617969400000000E+07
 1.000000000000000E-01  1.048400000000000E+01  4.719200000000000E+01  1.961536000000000E+07  8.240292300000000E+07
 1.500000000000000E-01  1.040400000000000E+01  4.910500000000000E+01  1.582105400000000E+07  9.772104900000000E+07
 2.000000000000000E-01  1.022600000000000E+01  5.033300000000000E+01  1.279925500000000E+07  1.074579600000000E+08
 2.500000000000000E-01  9.852000000000000E+00  4.891200000000000E+01  1.042746000000000E+07  1.065445800000000E+08
 3.000000000000000E-01  9.516999999999999E+00  4.597700000000000E+01  8.427317000000000E+06  9.954168500000000E+07
 3.500000000000000E-01  9.096000000000000E+00  4.273500000000000E+01  6.826572000000000E+06  8.981528300000000E+07
 4.000000000000000E-01  8.557000000000000E+00  3.924300000000000E+01  5.550799000000000E+06  7.787289500000000E+07
 4.500000000000000E-01  7.692000000000000E+00  3.602400000000000E+01  4.462882000000000E+06  6.639983500000000E+07
 5.000000000000000E-01  6.616000000000000E+00  3.311800000000000E+01  3.589918000000000E+06  5.546380300000000E+07
 5.500000000000000E-01  5.613000000000000E+00  3.027200000000000E+01  2.821277000000000E+06  4.507702400000000E+07
 6.000000000000000E-01  4.567000000000000E+00  2.752300000000000E+01  2.221759000000000E+06  3.558066800000000E+07
 6.500000000000000E-01  3.575000000000000E+00  2.499600000000000E+01  1.677427000000000E+06  2.750648300000000E+07
 7.000000000000000E-01  2.734000000000000E+00  2.299100000000000E+01  1.264032000000000E+06  2.280662500000000E+07
 7.500000000000000E-01  1.990000000000000E+00  2.092500000000000E+01  8.834820000000000E+05  1.818798600000000E+07
 8.000000000000000E-01  1.417000000000000E+00  1.862800000000000E+01  6.255090000000000E+05  1.387244900000000E+07
 8.500000000000000E-01  1.012000000000000E+00  1.620100000000000E+01  3.820640000000000E+05  9.657950000000000E+06
 9.000000000000000E-01  6.640000000000000E-01  1.287100000000000E+01  2.395430000000000E+05  6.145300000000000E+06
 9.500000000000000E-01  3.950000000000000E-01  9.536000000000000E+00  1.030000000000000E+05  2.780000000000000E+06
 1.000000000000000E+00  1.260000000000000E-01  6.100000000000000E+00  1.030000000000000E+05  2.780000000000000E+06
---------------------- BLADE MODE SHAPES ---------------------------------------
      0.299   BldFl1Sh(2) - Flap mode 1, coeff of x^2
      1.223   BldFl1Sh(3) -            , coeff of x^3
     -1.424   BldFl1Sh(4) -            , coeff of x^4
      1.593   BldFl1Sh(5) -            , coeff of x^5
     -0.692   BldFl1Sh(6) -            , coeff of x^6
      -1.44   BldFl2Sh(2) - Flap mode 2, coeff of x^2
     -1.216   BldFl2Sh(3) -            , coeff of x^3
     -3.751   BldFl2Sh(4) -            , coeff of x^4
     13.923   BldFl2Sh(5) -            , coeff of x^5
     -6.516   BldFl2Sh(6) -            , coeff of x^6
      1.535   BldEdgSh(2) - Edge mode 1, coeff of x^2
     -0.689   BldEdgSh(3) -            , coeff of x^3
     -0.817   BldEdgSh(4) -            , coeff of x^4
      1.876   BldEdgSh(5) -            , coeff of x^5
     -0.905   BldEdgSh(6) -            , coeff of x^6


