





Time	B1WvsFxi	B1WvsFyi	B1WvsFzi	B1WvsMxi	B1WvsMyi	B1WvsMzi
(s)	(N)	(N)	(N)	(N-m)	(N-m)	(N-m)
    0.0000  -3.707106E+06  -3.141637E+06   2.699097E+05  -4.611737E+07   7.146258E+07  -4.029340E+07
    0.1000  -3.683302E+06  -3.112314E+06   1.212096E+05  -4.202648E+07   6.973643E+07  -3.838649E+07
    0.2000  -3.639003E+06  -3.064421E+06  -2.735074E+04  -3.769834E+07   6.763148E+07  -3.627143E+07
    0.3000  -3.574584E+06  -2.998366E+06  -1.749000E+05  -3.316185E+07   6.516333E+07  -3.396133E+07
    0.4000  -3.490532E+06  -2.914670E+06  -3.205769E+05  -2.844710E+07   6.234958E+07  -3.147039E+07
    0.5000  -3.387445E+06  -2.813958E+06  -4.635360E+05  -2.358517E+07   5.920971E+07  -2.881379E+07
    0.6000  -3.266028E+06  -2.696958E+06  -6.029518E+05  -1.860795E+07   5.576498E+07  -2.600761E+07
    0.7000  -3.127089E+06  -2.564494E+06  -7.380247E+05  -1.354787E+07   5.203822E+07  -2.306873E+07
    0.8000  -2.971530E+06  -2.417481E+06  -8.679843E+05  -8.437789E+06   4.805377E+07  -2.001470E+07
    0.9000  -2.800348E+06  -2.256918E+06  -9.920954E+05  -3.310692E+06   4.383725E+07  -1.686370E+07
    1.0000  -2.614620E+06  -2.083884E+06  -1.109661E+06   1.800464E+06   3.941544E+07  -1.363436E+07
    1.1000  -2.415504E+06  -1.899528E+06  -1.220026E+06   6.862982E+06   3.481611E+07  -1.034569E+07
    1.2000  -2.204227E+06  -1.705061E+06  -1.322584E+06   1.184463E+07   3.006780E+07  -7.016959E+06
    1.3000  -1.982083E+06  -1.501754E+06  -1.416776E+06   1.671384E+07   2.519973E+07  -3.667574E+06
    1.4000  -1.750416E+06  -1.290920E+06  -1.502097E+06   2.143993E+07   2.024153E+07  -3.169755E+05
    1.5000  -1.510620E+06  -1.073915E+06  -1.578098E+06   2.599324E+07   1.522313E+07   3.015486E+06
    1.6000  -1.264128E+06  -8.521247E+05  -1.644388E+06   3.034541E+07   1.017452E+07   6.310657E+06
    1.7000  -1.012402E+06  -6.269546E+05  -1.700635E+06   3.446947E+07   5.125615E+06   9.549694E+06
    1.8000  -7.569258E+05  -3.998242E+05  -1.746570E+06   3.834004E+07   1.060575E+05   1.271418E+07
    1.9000  -4.991959E+05  -1.721565E+05  -1.781987E+06   4.193351E+07  -4.854960E+06   1.578621E+07
    2.0000  -2.407121E+05   5.463127E+04  -1.806745E+06   4.522816E+07  -9.728864E+06   1.874852E+07
    2.1000   1.703112E+04   2.791356E+05  -1.820767E+06   4.820429E+07  -1.448787E+07   2.158457E+07
    2.2000   2.725530E+05   4.999762E+05  -1.824039E+06   5.084435E+07  -1.910513E+07   2.427865E+07
    2.3000   5.243954E+05   7.158041E+05  -1.816616E+06   5.313306E+07  -2.355491E+07   2.681596E+07
    2.4000   7.711317E+05   9.253102E+05  -1.798612E+06   5.505747E+07  -2.781273E+07   2.918267E+07
    2.5000   1.011374E+06   1.127234E+06  -1.770206E+06   5.660706E+07  -3.185547E+07   3.136606E+07
    2.6000   1.243783E+06   1.320368E+06  -1.731641E+06   5.777378E+07  -3.566155E+07   3.335453E+07
    2.7000   1.467072E+06   1.503572E+06  -1.683214E+06   5.855211E+07  -3.921102E+07   3.513769E+07
    2.8000   1.680020E+06   1.675772E+06  -1.625285E+06   5.893908E+07  -4.248567E+07   3.670639E+07
    2.9000   1.881471E+06   1.835972E+06  -1.558267E+06   5.893429E+07  -4.546911E+07   3.805282E+07
    3.0000   2.070349E+06   1.983257E+06  -1.482624E+06   5.853990E+07  -4.814689E+07   3.917051E+07
    3.1000   2.245656E+06   2.116800E+06  -1.398870E+06   5.776059E+07  -5.050656E+07   4.005435E+07
    3.2000   2.406483E+06   2.235867E+06  -1.307566E+06   5.660354E+07  -5.253770E+07   4.070065E+07
    3.3000   2.552011E+06   2.339821E+06  -1.209315E+06   5.507840E+07  -5.423199E+07   4.110715E+07
    3.4000   2.681520E+06   2.428123E+06  -1.104755E+06   5.319715E+07  -5.558327E+07   4.127298E+07
    3.5000   2.794386E+06   2.500339E+06  -9.945617E+05   5.097409E+07  -5.658749E+07   4.119872E+07
    3.6000   2.890091E+06   2.556139E+06  -8.794392E+05   4.842569E+07  -5.724278E+07   4.088636E+07
    3.7000   2.968221E+06   2.595301E+06  -7.601167E+05   4.557051E+07  -5.754941E+07   4.033927E+07
    3.8000   3.028469E+06   2.617709E+06  -6.373444E+05   4.242904E+07  -5.750979E+07   3.956218E+07
    3.9000   3.070636E+06   2.623358E+06  -5.118883E+05   3.902358E+07  -5.712840E+07   3.856117E+07
    4.0000   3.094633E+06   2.612346E+06  -3.845255E+05   3.537811E+07  -5.641179E+07   3.734359E+07
    4.1000   3.100478E+06   2.584881E+06  -2.560396E+05   3.151807E+07  -5.536847E+07   3.591802E+07
    4.2000   3.088298E+06   2.541273E+06  -1.272157E+05   2.747024E+07  -5.400889E+07   3.429424E+07
    4.3000   3.058324E+06   2.481936E+06   1.164712E+03   2.326257E+07  -5.234534E+07   3.248313E+07
    4.4000   3.010894E+06   2.407379E+06   1.283279E+05   1.892393E+07  -5.039182E+07   3.049660E+07
    4.5000   2.946445E+06   2.318210E+06   2.535133E+05   1.448399E+07  -4.816399E+07   2.834753E+07
    4.6000   2.865513E+06   2.215124E+06   3.759776E+05   9.972980E+06  -4.567903E+07   2.604969E+07
    4.7000   2.768728E+06   2.098903E+06   4.949995E+05   5.421510E+06  -4.295553E+07   2.361764E+07
    4.8000   2.656810E+06   1.970409E+06   6.098839E+05   8.603553E+05  -4.001334E+07   2.106664E+07
    4.9000   2.530562E+06   1.830579E+06   7.199662E+05  -3.679735E+06  -3.687345E+07   1.841256E+07
    5.0000   2.390868E+06   1.680415E+06   8.246159E+05  -8.168246E+06  -3.355787E+07   1.567177E+07
    5.1000   2.238685E+06   1.520981E+06   9.232407E+05  -1.257509E+07  -3.008944E+07   1.286107E+07
    5.2000   2.075036E+06   1.353396E+06   1.015289E+06  -1.687082E+07  -2.649168E+07   9.997538E+06
    5.3000   1.901005E+06   1.178823E+06   1.100256E+06  -2.102679E+07  -2.278868E+07   7.098475E+06
    5.4000   1.717730E+06   9.984635E+05   1.177681E+06  -2.501538E+07  -1.900491E+07   4.181266E+06
    5.5000   1.526395E+06   8.135510E+05   1.247156E+06  -2.881014E+07  -1.516507E+07   1.263292E+06
    5.6000   1.328220E+06   6.253394E+05   1.308324E+06  -3.238599E+07  -1.129391E+07  -1.638180E+06
    5.7000   1.124459E+06   4.350971E+05   1.360881E+06  -3.571937E+07  -7.416124E+06  -4.506096E+06
    5.8000   9.163880E+05   2.440980E+05   1.404583E+06  -3.878839E+07  -3.556142E+06  -7.323719E+06
    5.9000   7.052975E+05   5.361315E+04   1.439237E+06  -4.157296E+07   2.619928E+05  -1.007473E+07
    6.0000   4.924858E+05  -1.350975E+05   1.464711E+06  -4.405496E+07   4.014780E+06  -1.274331E+07
    6.1000   2.792501E+05  -3.207930E+05   1.480932E+06  -4.621831E+07   7.679407E+06  -1.531425E+07
    6.2000   6.687914E+04  -5.022601E+05   1.487882E+06  -4.804909E+07   1.123389E+07  -1.777303E+07
    6.3000  -1.433550E+05  -6.783202E+05   1.485604E+06  -4.953565E+07   1.465719E+07  -2.010590E+07
    6.4000  -3.502043E+05  -8.478374E+05   1.474196E+06  -5.066866E+07   1.792937E+07  -2.229995E+07
    6.5000  -5.524522E+05  -1.009726E+06   1.453814E+06  -5.144114E+07   2.103167E+07  -2.434321E+07
    6.6000  -7.489209E+05  -1.162957E+06   1.424669E+06  -5.184859E+07   2.394666E+07  -2.622468E+07
    6.7000  -9.384784E+05  -1.306563E+06   1.387024E+06  -5.188892E+07   2.665831E+07  -2.793442E+07
    6.8000  -1.120045E+06  -1.439650E+06   1.341194E+06  -5.156252E+07   2.915207E+07  -2.946359E+07
    6.9000  -1.292599E+06  -1.561395E+06   1.287544E+06  -5.087226E+07   3.141498E+07  -3.080449E+07
    7.0000  -1.455183E+06  -1.671057E+06   1.226484E+06  -4.982342E+07   3.343573E+07  -3.195062E+07
    7.1000  -1.606910E+06  -1.767978E+06   1.158469E+06  -4.842371E+07   3.520470E+07  -3.289667E+07
    7.2000  -1.746968E+06  -1.851593E+06   1.083993E+06  -4.668317E+07   3.671402E+07  -3.363860E+07
    7.3000  -1.874622E+06  -1.921423E+06   1.003588E+06  -4.461414E+07   3.795761E+07  -3.417363E+07
    7.4000  -1.989222E+06  -1.977089E+06   9.178198E+05  -4.223115E+07   3.893119E+07  -3.450023E+07
    7.5000  -2.090203E+06  -2.018306E+06   8.272833E+05  -3.955087E+07   3.963229E+07  -3.461814E+07
    7.6000  -2.177091E+06  -2.044890E+06   7.325994E+05  -3.659191E+07   4.006026E+07  -3.452839E+07
    7.7000  -2.249502E+06  -2.056754E+06   6.344108E+05  -3.337482E+07   4.021627E+07  -3.423322E+07
    7.8000  -2.307146E+06  -2.053914E+06   5.333777E+05  -2.992183E+07   4.010324E+07  -3.373614E+07
    7.9000  -2.349826E+06  -2.036483E+06   4.301734E+05  -2.625680E+07   3.972585E+07  -3.304181E+07
    8.0000  -2.377442E+06  -2.004674E+06   3.254801E+05  -2.240502E+07   3.909049E+07  -3.215609E+07
    8.1000  -2.389988E+06  -1.958795E+06   2.199844E+05  -1.839304E+07   3.820518E+07  -3.108595E+07
    8.2000  -2.387552E+06  -1.899250E+06   1.143729E+05  -1.424850E+07   3.707950E+07  -2.983942E+07
    8.3000  -2.370314E+06  -1.826534E+06   9.327827E+03  -9.999973E+06   3.572455E+07  -2.842556E+07
    8.4000  -2.338547E+06  -1.741229E+06  -9.447722E+04  -5.676742E+06   3.415284E+07  -2.685437E+07
    8.5000  -2.292612E+06  -1.644004E+06  -1.963817E+05  -1.308624E+06   3.237818E+07  -2.513675E+07
    8.6000  -2.232954E+06  -1.535604E+06  -2.957423E+05   3.074230E+06   3.041560E+07  -2.328440E+07
    8.7000  -2.160105E+06  -1.416849E+06  -3.919368E+05   7.441534E+06   2.828125E+07  -2.130976E+07
    8.8000  -2.074670E+06  -1.288629E+06  -4.843683E+05   1.176307E+07   2.599224E+07  -1.922592E+07
    8.9000  -1.977333E+06  -1.151893E+06  -5.724684E+05   1.600888E+07   2.356656E+07  -1.704656E+07
    9.0000  -1.868844E+06  -1.007651E+06  -6.557015E+05   2.014947E+07   2.102293E+07  -1.478583E+07
    9.1000  -1.750019E+06  -8.569569E+05  -7.335675E+05   2.415603E+07   1.838067E+07  -1.245827E+07
    9.2000  -1.621731E+06  -7.009094E+05  -8.056049E+05   2.800059E+07   1.565958E+07  -1.007873E+07
    9.3000  -1.484907E+06  -5.406408E+05  -8.713939E+05   3.165621E+07   1.287978E+07  -7.662260E+06
    9.4000  -1.340518E+06  -3.773099E+05  -9.305589E+05   3.509719E+07   1.006157E+07  -5.224016E+06
    9.5000  -1.189577E+06  -2.120944E+05  -9.827704E+05   3.829925E+07   7.225332E+06  -2.779182E+06
    9.6000  -1.033129E+06  -4.618275E+04  -1.027747E+06   4.123962E+07   4.391334E+06  -3.428583E+05
    9.7000  -8.722432E+05   1.192338E+05  -1.065259E+06   4.389730E+07   1.579629E+06   2.070026E+06
    9.8000  -7.080103E+05   2.829696E+05  -1.095124E+06   4.625312E+07  -1.190097E+06   4.444805E+06
    9.9000  -5.415313E+05   4.438524E+05  -1.117215E+06   4.828994E+07  -3.898651E+06   6.767170E+06
   10.0000  -3.739118E+05   6.007315E+05  -1.131456E+06   4.999269E+07  -6.527466E+06   9.023251E+06
   10.1000  -2.062549E+05   7.524854E+05  -1.137826E+06   5.134855E+07  -9.058724E+06   1.119971E+07
   10.2000  -3.965369E+04   8.980300E+05  -1.136354E+06   5.234703E+07  -1.147547E+07   1.328380E+07
   10.3000   1.248157E+05   1.036325E+06  -1.127123E+06   5.297999E+07  -1.376174E+07   1.526348E+07
   10.4000   2.861010E+05   1.166383E+06  -1.110267E+06   5.324177E+07  -1.590264E+07   1.712745E+07
   10.5000   4.431804E+05   1.287273E+06  -1.085972E+06   5.312920E+07  -1.788447E+07   1.886523E+07
   10.6000   5.950691E+05   1.398130E+06  -1.054470E+06   5.264163E+07  -1.969478E+07   2.046723E+07
   10.7000   7.408256E+05   1.498160E+06  -1.016043E+06   5.178096E+07  -2.132250E+07   2.192480E+07
   10.8000   8.795576E+05   1.586645E+06  -9.710155E+05   5.055161E+07  -2.275795E+07   2.323026E+07
   10.9000   1.010427E+06   1.662948E+06  -9.197571E+05   4.896051E+07  -2.399295E+07   2.437697E+07
   11.0000   1.132657E+06   1.726518E+06  -8.626759E+05   4.701707E+07  -2.502082E+07   2.535934E+07
   11.1000   1.245534E+06   1.776893E+06  -8.002174E+05   4.473312E+07  -2.583647E+07   2.617290E+07
   11.2000   1.348413E+06   1.813704E+06  -7.328608E+05   4.212282E+07  -2.643638E+07   2.681426E+07
   11.3000   1.440723E+06   1.836678E+06  -6.611159E+05   3.920259E+07  -2.681865E+07   2.728117E+07
   11.4000   1.521968E+06   1.845639E+06  -5.855191E+05   3.599101E+07  -2.698300E+07   2.757249E+07
   11.5000   1.591730E+06   1.840509E+06  -5.066300E+05   3.250870E+07  -2.693071E+07   2.768825E+07
   11.6000   1.649674E+06   1.821312E+06  -4.250272E+05   2.877817E+07  -2.666470E+07   2.762957E+07
   11.7000   1.695545E+06   1.788167E+06  -3.413046E+05   2.482369E+07  -2.618939E+07   2.739866E+07
   11.8000   1.729174E+06   1.741296E+06  -2.560667E+05   2.067116E+07  -2.551074E+07   2.699885E+07
   11.9000   1.750475E+06   1.681014E+06  -1.699251E+05   1.634787E+07  -2.463617E+07   2.643450E+07
   12.0000   1.759445E+06   1.607735E+06  -8.349363E+04   1.188238E+07  -2.357448E+07   2.571096E+07
   12.1000   1.756167E+06   1.521962E+06   2.615429E+03   7.304339E+06  -2.233582E+07   2.483460E+07
   12.2000   1.740805E+06   1.424288E+06   8.779576E+04   2.644232E+06  -2.093156E+07   2.381267E+07
   12.3000   1.713602E+06   1.315393E+06   1.714511E+05  -2.066769E+06  -1.937424E+07   2.265329E+07
   12.4000   1.674882E+06   1.196033E+06   2.529993E+05  -6.797032E+06  -1.767745E+07   2.136540E+07
   12.5000   1.625042E+06   1.067043E+06   3.318764E+05  -1.151467E+07  -1.585573E+07   1.995867E+07
   12.6000   1.564554E+06   9.293249E+05   4.075401E+05  -1.618777E+07  -1.392446E+07   1.844343E+07
   12.7000   1.493955E+06   7.838456E+05   4.794739E+05  -2.078458E+07  -1.189975E+07   1.683062E+07
   12.8000   1.413849E+06   6.316276E+05   5.471901E+05  -2.527373E+07  -9.798296E+06   1.513169E+07
   12.9000   1.324899E+06   4.737434E+05   6.102334E+05  -2.962446E+07  -7.637282E+06   1.335853E+07
   13.0000   1.227820E+06   3.113077E+05   6.681837E+05  -3.380681E+07  -5.434233E+06   1.152338E+07
   13.1000   1.123380E+06   1.454699E+05   7.206589E+05  -3.779182E+07  -3.206891E+06   9.638774E+06
   13.2000   1.012387E+06  -2.259392E+04   7.673174E+05  -4.155174E+07  -9.730827E+05   7.717412E+06
   13.3000   8.956908E+05  -1.916890E+05   8.078602E+05  -4.506019E+07   1.249414E+06   5.772108E+06
   13.4000   7.741691E+05  -3.606100E+05   8.420330E+05  -4.829239E+07   3.442997E+06   3.815694E+06
   13.5000   6.487268E+05  -5.281496E+05   8.696275E+05  -5.122525E+07   5.590372E+06   1.860935E+06
   13.6000   5.202871E+05  -6.931064E+05   8.904829E+05  -5.383762E+07   7.674676E+06  -7.955133E+04
   13.7000   3.897860E+05  -8.542935E+05   9.044866E+05  -5.611035E+07   9.679602E+06  -1.993375E+06
   13.8000   2.581653E+05  -1.010547E+06   9.115748E+05  -5.802649E+07   1.158951E+07  -3.868456E+06
   13.9000   1.263660E+05  -1.160732E+06   9.117329E+05  -5.957134E+07   1.338956E+07  -5.693097E+06
   14.0000  -4.677553E+03  -1.303754E+06   9.049954E+05  -6.073263E+07   1.506578E+07  -7.456056E+06
   14.1000  -1.340446E+05  -1.438563E+06   8.914451E+05  -6.150054E+07   1.660520E+07  -9.146618E+06
   14.2000  -2.608340E+05  -1.564163E+06   8.712128E+05  -6.186779E+07   1.799593E+07  -1.075466E+07
   14.3000  -3.841702E+05  -1.679618E+06   8.444759E+05  -6.182974E+07   1.922726E+07  -1.227069E+07
   14.4000  -5.032090E+05  -1.784057E+06   8.114573E+05  -6.138433E+07   2.028969E+07  -1.368596E+07
   14.5000  -6.171432E+05  -1.876685E+06   7.724232E+05  -6.053222E+07   2.117505E+07  -1.499243E+07
   14.6000  -7.252080E+05  -1.956780E+06   7.276815E+05  -5.927667E+07   2.187652E+07  -1.618290E+07
   14.7000  -8.266856E+05  -2.023708E+06   6.775796E+05  -5.762364E+07   2.238869E+07  -1.725098E+07
   14.8000  -9.209100E+05  -2.076920E+06   6.225015E+05  -5.558167E+07   2.270761E+07  -1.819116E+07
   14.9000  -1.007271E+06  -2.115958E+06   5.628654E+05  -5.316189E+07   2.283077E+07  -1.899884E+07
   15.0000  -1.085219E+06  -2.140462E+06   4.991203E+05  -5.037790E+07   2.275717E+07  -1.967031E+07
   15.1000  -1.154267E+06  -2.150165E+06   4.317434E+05  -4.724575E+07   2.248729E+07  -2.020283E+07
   15.2000  -1.213992E+06  -2.144903E+06   3.612362E+05  -4.378382E+07   2.202310E+07  -2.059458E+07
   15.3000  -1.264043E+06  -2.124611E+06   2.881212E+05  -4.001267E+07   2.136803E+07  -2.084468E+07
   15.4000  -1.304137E+06  -2.089326E+06   2.129383E+05  -3.595497E+07   2.052696E+07  -2.095321E+07
   15.5000  -1.334065E+06  -2.039187E+06   1.362411E+05  -3.163535E+07   1.950617E+07  -2.092118E+07
   15.6000  -1.353687E+06  -1.974434E+06   5.859286E+04  -2.708021E+07   1.831331E+07  -2.075050E+07
   15.7000  -1.362942E+06  -1.895405E+06  -1.943717E+04  -2.231761E+07   1.695732E+07  -2.044398E+07
   15.8000  -1.361838E+06  -1.802538E+06  -9.727775E+04  -1.737706E+07   1.544840E+07  -2.000532E+07
   15.9000  -1.350457E+06  -1.696365E+06  -1.743595E+05  -1.228936E+07   1.379789E+07  -1.943902E+07
   16.0000  -1.328955E+06  -1.577511E+06  -2.501190E+05  -7.086372E+06   1.201825E+07  -1.875042E+07
   16.1000  -1.297557E+06  -1.446688E+06  -3.240022E+05  -1.800880E+06   1.012291E+07  -1.794558E+07
   16.2000  -1.256556E+06  -1.304694E+06  -3.954687E+05   3.533662E+06   8.126226E+06  -1.703130E+07
   16.3000  -1.206315E+06  -1.152403E+06  -4.639952E+05   8.883320E+06   6.043348E+06  -1.601504E+07
   16.4000  -1.147256E+06  -9.907656E+05  -5.290788E+05   1.421390E+07   3.890124E+06  -1.490484E+07
   16.5000  -1.079865E+06  -8.207988E+05  -5.902411E+05   1.949114E+07   1.682989E+06  -1.370932E+07
   16.6000  -1.004683E+06  -6.435814E+05  -6.470308E+05   2.468098E+07  -5.611516E+05  -1.243758E+07
   16.7000  -9.223066E+05  -4.602468E+05  -6.990271E+05   2.974970E+07  -2.825041E+06  -1.109914E+07
   16.8000  -8.333785E+05  -2.719758E+05  -7.458428E+05   3.466421E+07  -5.091193E+06  -9.703885E+06
   16.9000  -7.385873E+05  -7.998972E+04  -7.871264E+05   3.939219E+07  -7.342012E+06  -8.261988E+06
   17.0000  -6.386604E+05   1.144582E+05  -8.225651E+05   4.390237E+07  -9.559921E+06  -6.783850E+06
   17.1000  -5.343601E+05   3.100900E+05  -8.518869E+05   4.816468E+07  -1.172749E+07  -5.280022E+06
   17.2000  -4.264772E+05   5.056117E+05  -8.748620E+05   5.215044E+07  -1.382754E+07  -3.761139E+06
   17.3000  -3.158264E+05   6.997214E+05  -8.913055E+05   5.583261E+07  -1.584330E+07  -2.237845E+06
   17.4000  -2.032401E+05   8.911177E+05  -9.010775E+05   5.918587E+07  -1.775850E+07  -7.207255E+05
   17.5000  -8.956283E+04   1.078508E+06  -9.040854E+05   6.218691E+07  -1.955749E+07   7.797662E+05
   17.6000   2.435475E+04   1.260618E+06  -9.002837E+05   6.481446E+07  -2.122537E+07   2.253375E+06
   17.7000   1.376616E+05   1.436198E+06  -8.896751E+05   6.704953E+07  -2.274810E+07   3.690113E+06
   17.8000   2.495122E+05   1.604034E+06  -8.723105E+05   6.887551E+07  -2.411259E+07   5.080326E+06
   17.9000   3.590728E+05   1.762953E+06  -8.482883E+05   7.027828E+07  -2.530679E+07   6.414756E+06
   18.0000   4.655267E+05   1.911831E+06  -8.177550E+05   7.124632E+07  -2.631983E+07   7.684602E+06
   18.1000   5.680805E+05   2.049606E+06  -7.809032E+05   7.177082E+07  -2.714205E+07   8.881579E+06
   18.2000   6.659692E+05   2.175278E+06  -7.379715E+05   7.184571E+07  -2.776511E+07   9.997971E+06
   18.3000   7.584620E+05   2.287919E+06  -6.892421E+05   7.146777E+07  -2.818205E+07   1.102668E+07
   18.4000   8.448675E+05   2.386682E+06  -6.350401E+05   7.063660E+07  -2.838737E+07   1.196127E+07
   18.5000   9.245381E+05   2.470802E+06  -5.757306E+05   6.935471E+07  -2.837704E+07   1.279603E+07
   18.6000   9.968755E+05   2.539609E+06  -5.117168E+05   6.762749E+07  -2.814858E+07   1.352597E+07
   18.7000   1.061334E+06   2.592524E+06  -4.434375E+05   6.546319E+07  -2.770106E+07   1.414689E+07
   18.8000   1.117426E+06   2.629070E+06  -3.713637E+05   6.287290E+07  -2.703517E+07   1.465538E+07
   18.9000   1.164724E+06   2.648876E+06  -2.959963E+05   5.987049E+07  -2.615317E+07   1.504887E+07
   19.0000   1.202864E+06   2.651676E+06  -2.178623E+05   5.647256E+07  -2.505893E+07   1.532562E+07
   19.1000   1.231550E+06   2.637315E+06  -1.375111E+05   5.269831E+07  -2.375789E+07   1.548472E+07
   19.2000   1.250555E+06   2.605749E+06  -5.551139E+04   4.856950E+07  -2.225708E+07   1.552615E+07
   19.3000   1.259722E+06   2.557049E+06   2.755320E+04   4.411027E+07  -2.056504E+07   1.545071E+07
   19.4000   1.258967E+06   2.491399E+06   1.110879E+05   3.934701E+07  -1.869178E+07   1.526004E+07
